Frequency [Hz],FIR,IIR
0.000000000000000000e+00,-5.352439224215690672e+01,-2.400000000000000000e+02
1.221001221001220965e-01,-5.357221490962349719e+01,-7.653707171815433696e+01
2.442002442002441931e-01,-5.371607898036334916e+01,-6.449587078123647643e+01
3.663003663003662758e-01,-5.395717729737167190e+01,-5.745222242471424323e+01
4.884004884004883862e-01,-5.429751234758631995e+01,-5.245468386625344692e+01
6.105006105006104411e-01,-5.473991381544477974e+01,-4.857831124922800825e+01
7.326007326007325515e-01,-5.528805338199809682e+01,-4.541111671886233125e+01
8.547008547008546619e-01,-5.594644256404360760e+01,-4.273334057662916052e+01
9.768009768009767724e-01,-5.672038719213733771e+01,-4.041381330659731219e+01
1.098901098901098772e+00,-5.761584991380453147e+01,-3.836793552802922136e+01
1.221001221001220882e+00,-5.863913156348545641e+01,-3.653795118573081879e+01
1.343101343101342993e+00,-5.979620852622546323e+01,-3.488267317298327441e+01
1.465201465201465103e+00,-6.109143116998440348e+01,-3.337169849308589420e+01
1.587301587301587213e+00,-6.252506068746892254e+01,-3.198194689683164427e+01
1.709401709401709324e+00,-6.408876370341691597e+01,-3.069548592777364249e+01
1.831501831501831434e+00,-6.575775008587233117e+01,-2.949810814634828304e+01
1.953601953601953545e+00,-6.747818422534091098e+01,-2.837836846555483561e+01
2.075702075702075433e+00,-6.915046578926376242e+01,-2.732691383489780179e+01
2.197802197802197544e+00,-7.061656798127222601e+01,-2.633600480207244487e+01
2.319902319902319654e+00,-7.167440936804280227e+01,-2.539916659083172590e+01
2.442002442002441764e+00,-7.214610972990145399e+01,-2.451092976832564219e+01
2.564102564102563875e+00,-7.197881350446083104e+01,-2.366663423498918917e+01
2.686202686202685985e+00,-7.128668577114015648e+01,-2.286227883680558293e+01
2.808302808302808096e+00,-7.028670408307023365e+01,-2.209440441505798347e+01
2.930402930402930206e+00,-6.920202259512096532e+01,-2.136000174316094657e+01
3.052503052503052317e+00,-6.821264378127415284e+01,-2.065643824621345459e+01
3.174603174603174427e+00,-6.745792093069263728e+01,-1.998139907649752445e+01
3.296703296703296537e+00,-6.706533725588700179e+01,-1.933283928855978928e+01
3.418803418803418648e+00,-6.719672401390734251e+01,-1.870894468725499848e+01
3.540903540903540758e+00,-6.814024267081886421e+01,-1.810809951854707478e+01
3.663003663003662869e+00,-7.060446111326865548e+01,-1.752885960753301475e+01
3.785103785103784979e+00,-7.762660016886981396e+01,-1.696992986868627185e+01
3.907203907203907089e+00,-7.876295255480401636e+01,-1.643014535241768215e+01
4.029304029304029200e+00,-6.668858300631855229e+01,-1.590845517230489570e+01
4.151404151404150866e+00,-6.062369614625688286e+01,-1.540390879453447326e+01
4.273504273504273421e+00,-5.625639582672811656e+01,-1.491564427652424385e+01
4.395604395604395087e+00,-5.273267696615712197e+01,-1.444287812339201693e+01
4.517704517704517642e+00,-4.972791573812983756e+01,-1.398489649474052143e+01
4.639804639804639308e+00,-4.708207301735007633e+01,-1.354104754447762105e+01
4.761904761904761862e+00,-4.470356439076081045e+01,-1.311073471625787512e+01
4.884004884004883529e+00,-4.253456483107540009e+01,-1.269341084890605131e+01
5.006105006105006083e+00,-4.053591464477163697e+01,-1.228857297178809915e+01
5.128205128205127750e+00,-3.867966564852972056e+01,-1.189575769073024958e+01
5.250305250305250304e+00,-3.694504276724268266e+01,-1.151453708192553904e+01
5.372405372405371971e+00,-3.531609455907216244e+01,-1.114451502499961677e+01
5.494505494505494525e+00,-3.378024664396905052e+01,-1.078532391764561105e+01
5.616605616605616191e+00,-3.232736887850207097e+01,-1.043662172364633633e+01
5.738705738705738746e+00,-3.094915019071702389e+01,-1.009808931369079055e+01
5.860805860805860412e+00,-2.963866571882178391e+01,-9.769428064859729588e+00
5.982905982905982967e+00,-2.839006860752025219e+01,-9.450357689975497522e+00
6.105006105006104633e+00,-2.719836518682448911e+01,-9.140614272406335061e+00
6.227106227106227188e+00,-2.605924746944349124e+01,-8.839948485643882137e+00
6.349206349206348854e+00,-2.496896600721466797e+01,-8.548123980036180569e+00
6.471306471306471408e+00,-2.392423177545272139e+01,-8.264915921617642880e+00
6.593406593406593075e+00,-2.292213933456537234e+01,-7.990109670080275173e+00
6.715506715506715629e+00,-2.196010585473911902e+01,-7.723499584703782617e+00
6.837606837606837296e+00,-2.103582214939311612e+01,-7.464887948453236888e+00
6.959706959706959850e+00,-2.014721292621967308e+01,-7.214084001633097820e+00
7.081807081807081516e+00,-1.929240420285051627e+01,-6.970903077435170125e+00
7.203907203907204071e+00,-1.846969635560054357e+01,-6.735165832405984432e+00
7.326007326007325737e+00,-1.767754164379979542e+01,-6.506697565517201909e+00
7.448107448107448292e+00,-1.691452532443456391e+01,-6.285327619903807062e+00
7.570207570207569958e+00,-1.617934967253750145e+01,-6.070888861728091612e+00
7.692307692307692513e+00,-1.547082037258045339e+01,-5.863217230866441199e+00
7.814407814407814179e+00,-1.478783485920927454e+01,-5.662151358318032734e+00
7.936507936507935845e+00,-1.412937227192093204e+01,-5.467532245388935230e+00
8.058608058608058400e+00,-1.349448475472492603e+01,-5.279202999812920183e+00
8.180708180708180066e+00,-1.288228988347580994e+01,-5.097008624085149542e+00
8.302808302808301733e+00,-1.229196404404974885e+01,-4.920795851348506389e+00
8.424908424908425175e+00,-1.172273661652963916e+01,-4.750413024309649401e+00
8.547008547008546842e+00,-1.117388484603415577e+01,-4.585710012712580053e+00
8.669108669108668508e+00,-1.064472930124703964e+01,-4.426538165053889529e+00
8.791208791208790174e+00,-1.013462983818726748e+01,-4.272750290327711475e+00
8.913308913308913617e+00,-9.642982000148347055e+00,-4.124200665764067075e+00
9.035409035409035283e+00,-9.169213795675702272e+00,-3.980745066672497945e+00
9.157509157509156950e+00,-8.712782805441358747e+00,-3.842240814721539888e+00
9.279609279609278616e+00,-8.273173576304021282e+00,-3.708546841168546937e+00
9.401709401709402059e+00,-7.849895267012988676e+00,-3.579523761809086047e+00
9.523809523809523725e+00,-7.442479515165192794e+00,-3.455033960623146161e+00
9.645909645909645391e+00,-7.050478499345582684e+00,-3.334941679381221213e+00
9.768009768009767058e+00,-6.673463174022820965e+00,-3.219113110697453095e+00
9.890109890109890500e+00,-6.311021657855713229e+00,-3.107416492298739286e+00
1.001221001221001217e+01,-5.962757758688374210e+00,-2.999722200525282823e+00
1.013431013431013383e+01,-5.628289620752543243e+00,-2.895902841337731903e+00
1.025641025641025550e+01,-5.307248481518179517e+00,-2.795833337351979253e+00
1.037851037851037894e+01,-4.999277527289966550e+00,-2.699391009660141449e+00
1.050061050061050061e+01,-4.704030838081329158e+00,-2.606455653422453445e+00
1.062271062271062227e+01,-4.421172413543784430e+00,-2.516909606424831303e+00
1.074481074481074394e+01,-4.150375272816967609e+00,-2.430637809995768173e+00
1.086691086691086738e+01,-3.891320622117514283e+00,-2.347527861851046449e+00
1.098901098901098905e+01,-3.643697084723224844e+00,-2.267470060602375881e+00
1.111111111111111072e+01,-3.407199988748482067e+00,-2.190357441805756533e+00
1.123321123321123238e+01,-3.181530708761838966e+00,-2.116085805558003852e+00
1.135531135531135583e+01,-2.966396057877952686e+00,-2.044553735755736401e+00
1.147741147741147749e+01,-2.761507727472757967e+00,-1.975662611230561971e+00
1.159951159951159916e+01,-2.566581772130776429e+00,-1.909316609046727065e+00
1.172161172161172082e+01,-2.381338137842307745e+00,-1.845422700321146525e+00
1.184371184371184249e+01,-2.205500231831241109e+00,-1.783890638962924768e+00
1.196581196581196593e+01,-2.038794532714824914e+00,-1.724632943787971717e+00
1.208791208791208760e+01,-1.880950239977865257e+00,-1.667564874466354041e+00
1.221001221001220927e+01,-1.731698961987518715e+00,-1.612604401804784704e+00
1.233211233211233093e+01,-1.590774441982604426e+00,-1.559672172852380800e+00
1.245421245421245438e+01,-1.457912321643746401e+00,-1.508691471337168633e+00
1.257631257631257604e+01,-1.332849941988327513e+00,-1.459588173922232723e+00
1.269841269841269771e+01,-1.215326181436906738e+00,-1.412290702770890860e+00
1.282051282051281937e+01,-1.105081330965264286e+00,-1.366729974885903864e+00
1.294261294261294282e+01,-1.001857006288179530e+00,-1.322839348677331994e+00
1.306471306471306448e+01,-9.053960970166441413e-01,-1.280554568190025444e+00
1.318681318681318615e+01,-8.154427526892382705e-01,-1.239813705390863996e+00
1.330891330891330782e+01,-7.317424055004047023e-01,-1.200557100905828678e+00
1.343101343101343126e+01,-6.540418294331464821e-01,-1.162727303558869441e+00
1.355311355311355292e+01,-5.820892353517850282e-01,-1.126269009043047387e+00
1.367521367521367459e+01,-5.156344014221594385e-01,-1.091128998026521302e+00
1.379731379731379626e+01,-4.544288380042694753e-01,-1.057256073977965949e+00
1.391941391941391970e+01,-3.982259859070608199e-01,-1.024601000954876273e+00
1.404151404151404137e+01,-3.467814466098934623e-01,-9.931164415890900710e-01
1.416361416361416303e+01,-2.998532427449252524e-01,-9.627568954748702001e-01
1.428571428571428470e+01,-2.572021068023679358e-01,-9.334786381375632658e-01
1.440781440781440814e+01,-2.185917956731572853e-01,-9.052396607469154199e-01
1.452991452991452981e+01,-1.837894282871921914e-01,-8.779996107160346064e-01
1.465201465201465147e+01,-1.525658432469700621e-01,-8.517197333067163534e-01
1.477411477411477314e+01,-1.246959730055006710e-01,-8.263628143478105592e-01
1.489621489621489658e+01,-9.995923080108187753e-02,-8.018931241542874844e-01
1.501831501831501825e+01,-7.813990625090533326e-02,-7.782763627196844780e-01
1.514041514041513992e+01,-5.902756522883558649e-02,-7.554796062475965801e-01
1.526251526251526158e+01,-4.241744942011627106e-02,-7.334712550629886030e-01
1.538461538461538503e+01,-2.811087076648763686e-02,-7.122209829434182904e-01
1.550671550671550669e+01,-1.591559589754658680e-02,-6.916996879005327115e-01
1.562881562881562836e+01,-5.646215595809044030e-03,-6.718794444209237327e-01
1.575091575091575002e+01,2.875505629560638418e-03,-6.527334571836933552e-01
1.587301587301587169e+01,9.820304677976079977e-03,-6.342360162501902154e-01
1.599511599511599513e+01,1.535112432848554503e-02,-6.163624537278984405e-01
1.611721611721611680e+01,1.962285139886759192e-02,-5.990891018931775447e-01
1.623931623931623847e+01,2.278209258848727312e-02,-5.823932527609056997e-01
1.636141636141636013e+01,2.496699156506923534e-02,-5.662531190793771430e-01
1.648351648351648180e+01,2.630709034829203583e-02,-5.506477967317310318e-01
1.660561660561660347e+01,2.692323747156851951e-02,-5.355572285139659217e-01
1.672771672771672868e+01,2.692754477845950636e-02,-5.209621692619462729e-01
1.684981684981685035e+01,2.642339404374469819e-02,-5.068441523006972371e-01
1.697191697191697202e+01,2.550549391496273466e-02,-4.931854571756269512e-01
1.709401709401709368e+01,2.425998696227829252e-02,-4.799690786411442978e-01
1.721611721611721535e+01,2.276460591838274164e-02,-4.671786968658271366e-01
1.733821733821733702e+01,2.108887750037873737e-02,-4.547986488186813725e-01
1.746031746031745868e+01,1.929437154665088194e-02,-4.428139008059647219e-01
1.758241758241758035e+01,1.743499258800306276e-02,-4.312100221149297585e-01
1.770451770451770557e+01,1.555731041492591782e-02,-4.199731597327227561e-01
1.782661782661782723e+01,1.370092571370551578e-02,-4.090900141054651384e-01
1.794871794871794890e+01,1.189886643065028726e-02,-3.985478158954713357e-01
1.807081807081807057e+01,1.017801019314882802e-02,-3.883343037083594185e-01
1.819291819291819223e+01,8.559527872912009103e-03,-3.784377027481073963e-01
1.831501831501831390e+01,7.059343221293317913e-03,-3.688467043724253380e-01
1.843711843711843557e+01,5.688603440552434352e-03,-3.595504465086948320e-01
1.855921855921855723e+01,4.454155573909366651e-03,-3.505384949000738826e-01
1.868131868131868245e+01,3.359023698183694496e-03,-3.418008251500762040e-01
1.880341880341880412e+01,2.402882079337030283e-03,-3.333278055324138123e-01
1.892551892551892578e+01,1.582519695614578205e-03,-3.251101805379799647e-01
1.904761904761904745e+01,8.922918376698778242e-04,-3.171390551238483790e-01
1.916971916971916912e+01,3.245548500436030081e-04,-3.094058796447053949e-01
1.929181929181929078e+01,-1.299195248176506694e-04,-3.019024354289080447e-01
1.941391941391941245e+01,-4.815533108152634622e-04,-2.946208209785960430e-01
1.953601953601953412e+01,-7.415976306291891494e-04,-2.875534387656953350e-01
1.965811965811965578e+01,-9.217964025436054453e-04,-2.806929825992233729e-01
1.978021978021978100e+01,-1.034080128819677520e-03,-2.740324255385216401e-01
1.990231990231990267e+01,-1.090291037416583897e-03,-2.675650083299493387e-01
2.002442002442002433e+01,-1.101940382589209049e-03,-2.612842283449962055e-01
2.014652014652014600e+01,-1.079998270639450286e-03,-2.551838289978234919e-01
2.026862026862026767e+01,-1.034715958456844560e-03,-2.492577896200897924e-01
2.039072039072038933e+01,-9.754801802464066994e-04,-2.435003157754559167e-01
2.051282051282051100e+01,-9.106986947153627521e-04,-2.379058299936771537e-01
2.063492063492063266e+01,-8.477159139348364181e-04,-2.324689629039405903e-01
2.075702075702075788e+01,-7.927571787014611260e-04,-2.271845447537192975e-01
2.087912087912087955e+01,-7.508999840502986797e-04,-2.220475972939272846e-01
2.100122100122100122e+01,-7.260702342346696302e-04,-2.170533260131151665e-01
2.112332112332112288e+01,-7.210614189210042772e-04,-2.121971127060698625e-01
2.124542124542124455e+01,-7.375744514592030929e-04,-2.074745083663557810e-01
2.136752136752136622e+01,-7.762757956616516807e-04,-2.028812263793456083e-01
2.148962148962148788e+01,-8.368714282503261423e-04,-1.984131360126356325e-01
2.161172161172160955e+01,-9.181941396460136092e-04,-1.940662561809433639e-01
2.173382173382173477e+01,-1.018301663824698654e-03,-1.898367494818316292e-01
2.185592185592185643e+01,-1.134583147868487192e-03,-1.857209164837882176e-01
2.197802197802197810e+01,-1.263871521165697148e-03,-1.817151902604994262e-01
2.210012210012209977e+01,-1.402559401388284426e-03,-1.778161311550439661e-01
2.222222222222222143e+01,-1.546716277058778110e-03,-1.740204217685253629e-01
2.234432234432234310e+01,-1.692204832697487022e-03,-1.703248621599559032e-01
2.246642246642246477e+01,-1.834794429392192644e-03,-1.667263652522048556e-01
2.258852258852258643e+01,-1.970269919015491065e-03,-1.632219524270865918e-01
2.271062271062271165e+01,-2.094534151065712783e-03,-1.598087493105484480e-01
2.283272283272283332e+01,-2.203702725166978640e-03,-1.564839817327358384e-01
2.295482295482295498e+01,-2.294189745695257143e-03,-1.532449718574410424e-01
2.307692307692307665e+01,-2.362783545969555400e-03,-1.500891344745653999e-01
2.319902319902319832e+01,-2.406711564155424379e-03,-1.470139734466819892e-01
2.332112332112331998e+01,-2.423693769272850049e-03,-1.440170783025326029e-01
2.344322344322344165e+01,-2.411984249503041321e-03,-1.410961209748054224e-01
2.356532356532356332e+01,-2.370400785192673838e-03,-1.382488526685795027e-01
2.368742368742368498e+01,-2.298342430791924795e-03,-1.354731008639341872e-01
2.380952380952381020e+01,-2.195795323027643648e-03,-1.327667664374145851e-01
2.393162393162393187e+01,-2.063327112791984302e-03,-1.301278209051273116e-01
2.405372405372405353e+01,-1.902070584675729986e-03,-1.275543037777965572e-01
2.417582417582417520e+01,-1.713697178292105825e-03,-1.250443200217843664e-01
2.429792429792429687e+01,-1.500381258284243235e-03,-1.225960376266393842e-01
2.442002442002441853e+01,-1.264756093786667795e-03,-1.202076852695244946e-01
2.454212454212454020e+01,-1.009862602519733801e-03,-1.178775500743580035e-01
2.466422466422466186e+01,-7.390919885540868850e-04,-1.156039754613734649e-01
2.478632478632478708e+01,-4.561234564751586807e-04,-1.133853590833603930e-01
2.490842490842490875e+01,-1.648582176151149330e-04,-1.112201508454677412e-01
2.503052503052503042e+01,1.306489826791974816e-04,-1.091068510025756388e-01
2.515262515262515208e+01,4.262595944022905302e-04,-1.070440083334640163e-01
2.527472527472527375e+01,7.178210510140956143e-04,-1.050302183883314033e-01
2.539682539682539542e+01,1.001235460745781430e-03,-1.030641218029796358e-01
2.551892551892551708e+01,1.272526103537708741e-03,-1.011444026834895510e-01
2.564102564102563875e+01,1.527900708422342711e-03,-9.926978705070349518e-02
2.576312576312576397e+01,1.763810571452253343e-03,-9.743904134933684125e-02
2.588522588522588563e+01,1.977004670370427659e-03,-9.565097101134559243e-02
2.600732600732600730e+01,2.164578037621719443e-03,-9.390441907936808441e-02
2.612942612942612897e+01,2.324013765717674804e-03,-9.219826488069240988e-02
2.625152625152625063e+01,2.453218136895408269e-03,-9.053142275428105457e-02
2.637362637362637230e+01,2.550548490186602384e-03,-8.890284082648301778e-02
2.649572649572649397e+01,2.614833562069805196e-03,-8.731149983309120788e-02
2.661782661782661563e+01,2.645386159276602762e-03,-8.575641198778152785e-02
2.673992673992674085e+01,2.642008143291781162e-03,-8.423661989361139191e-02
2.686202686202686252e+01,2.604987823039751817e-03,-8.275119549500915828e-02
2.698412698412698418e+01,2.535089964486091172e-03,-8.129923907022632013e-02
2.710622710622710585e+01,2.433538731500042244e-03,-7.987987826309729533e-02
2.722832722832722752e+01,2.301993970238461196e-03,-7.849226714907825420e-02
2.735042735042734918e+01,2.142521338572553335e-03,-7.713558533777620241e-02
2.747252747252747085e+01,1.957556861147125449e-03,-7.580903710939504436e-02
2.759462759462759252e+01,1.749866559783688899e-03,-7.451185058219278456e-02
2.771672771672771418e+01,1.522501866015146203e-03,-7.324327691280997643e-02
2.783882783882783940e+01,1.278751568697692950e-03,-7.200258952365388987e-02
2.796092796092796107e+01,1.022091082930373651e-03,-7.078908336141902236e-02
2.808302808302808273e+01,7.561298481874865248e-04,-6.960207418166848570e-02
2.820512820512820440e+01,4.845576726532439663e-04,-6.844089786014045940e-02
2.832722832722832607e+01,2.110908379257837311e-04,-6.730490972841364494e-02
2.844932844932844773e+01,-6.058123652027682201e-05,-6.619348393511083339e-02
2.857142857142856940e+01,-3.268479956416664532e-04,-6.510601282874269036e-02
2.869352869352869106e+01,-5.842276808269306282e-04,-6.404190636538301118e-02
2.881562881562881628e+01,-8.294145014994928639e-04,-6.300059153489087627e-02
2.893772893772893795e+01,-1.059322411320487564e-03,-6.198151180941299104e-02
2.905982905982905962e+01,-1.271124917933764802e-03,-6.098412661155794973e-02
2.918192918192918128e+01,-1.462290425678657892e-03,-6.000791080201246103e-02
2.930402930402930295e+01,-1.630612686899358607e-03,-5.905235418324077112e-02
2.942612942612942462e+01,-1.774236018558298777e-03,-5.811696102392557156e-02
2.954822954822954628e+01,-1.891675024824543243e-03,-5.720124959803235543e-02
2.967032967032966795e+01,-1.981828652426902582e-03,-5.630475174106504277e-02
2.979242979242979317e+01,-2.043988492268301697e-03,-5.542701242110825710e-02
2.991452991452991483e+01,-2.077841326657108890e-03,-5.456758932616378316e-02
3.003663003663003650e+01,-2.083466005777388514e-03,-5.372605246523811523e-02
3.015873015873015817e+01,-2.061324817751741985e-03,-5.290198378259805545e-02
3.028083028083027983e+01,-2.012249593346717488e-03,-5.209497678674880616e-02
3.040293040293040150e+01,-1.937422857515795410e-03,-5.130463619132688557e-02
3.052503052503052317e+01,-1.838354405318427635e-03,-5.053057756879512918e-02
3.064713064713064483e+01,-1.716853737256915195e-03,-4.977242701563556332e-02
3.076923076923077005e+01,-1.574998839582926165e-03,-4.902982082956302418e-02
3.089133089133089172e+01,-1.415101836694283941e-03,-4.830240519702827529e-02
3.101343101343101338e+01,-1.239672076060084269e-03,-4.758983589256350621e-02
3.113553113553113505e+01,-1.051377229986163401e-03,-4.689177798647914397e-02
3.125763125763125672e+01,-8.530030136900943784e-04,-4.620790556414594574e-02
3.137973137973137838e+01,-6.474121248986291870e-04,-4.553790145373465270e-02
3.150183150183150005e+01,-4.375030071492926075e-04,-4.488145696406842244e-02
3.162393162393162171e+01,-2.261690272174185544e-04,-4.423827162932947310e-02
